i,x,y,theta
0,6,2.5,0
1,5.99999999025273,2.50000008661123,3.88790645549621E-10
2,6.00010166083085,2.5000000819002,5.65274480073819E-08
3,6.00040498020196,2.50000015815731,1.92883561061958E-07
4,6.00090968252988,2.50000020621135,3.67143393045921E-07
5,6.00161377482362,2.50000023385127,5.61264895345157E-07
6,6.00251547786348,2.50000024895355,7.67209493549684E-07
7,6.00361337030262,2.50000025717366,9.80882102366035E-07
8,6.0049063785977,2.50000026203626,1.19993581786361E-06
9,6.00639371867185,2.50000026556138,1.42290011072359E-06
10,6.00807483047412,2.50000026884274,1.6488004186593E-06
11,6.0099493202255,2.50000027245266,1.87697342145787E-06
12,6.01201691426642,2.5000002766916,2.10696454808556E-06
13,6.01427742410392,2.5000002817293,2.33846348628885E-06
14,6.01673072080973,2.50000028767904,2.57126008213237E-06
15,6.01937671709529,2.50000029437782,2.80521648862143E-06
16,6.0222153577806,2.50000030026255,3.04025756558179E-06
17,6.02524660359001,2.50000030501466,3.27614297570796E-06
18,6.02847042958231,2.50000030813668,3.51247216230497E-06
19,6.03188681498468,2.50000031135041,3.74885418809028E-06
20,6.03530328404009,2.50000031556842,3.87910141540617E-06
21,6.0387198508033,2.50000032142875,3.95670808294794E-06
22,6.04213633548098,2.50000032939534,4.00365701908412E-06
23,6.04555286767207,2.50000033891994,4.03565996230204E-06
24,6.04896930826784,2.50000035003748,4.05662955086297E-06
25,6.05238579952675,2.50000036204088,4.07398758929547E-06
26,6.05580221123887,2.50000037497281,4.08632564402601E-06
27,6.05921868162198,2.50000038823727,4.09882822870134E-06
28,6.06263508135172,2.50000040200302,4.10823750599611E-06
29,6.06605154401924,2.50000041580075,4.11911082976268E-06
30,6.06946794025357,2.50000042989746,4.12749951146249E-06
31,6.07269190826501,2.50000044311409,4.03248778654712E-06
32,6.07591580237807,2.50000045619533,3.98879365263673E-06
33,6.07913959608596,2.50000046926137,3.96746974265948E-06
34,6.08236344413194,2.5000004820539,3.96116223579196E-06
35,6.08558722873179,2.50000049495197,3.959655261434E-06
36,6.08881108212313,2.50000050766437,3.96423340643458E-06
37,6.09203487624669,2.50000052053432,3.96874816769295E-06
38,6.09525873862852,2.50000053325102,3.97665497671686E-06
39,6.09848253988848,2.50000054614567,3.98297638443668E-06
40,6.10170640729438,2.50000055889839,4.69196430451326E-06
41,6.10493021223211,2.50000057183639,4.7171990130968E-06
42,6.10815408252275,2.50000058463382,4.74368207054053E-06
43,6.11137788950147,2.50000059761543,4.76783672715867E-06
44,6.11460176101155,2.5000006104535,4.79389418733821E-06
45,6.11782556879857,2.50000062347275,4.81791186886941E-06
46,6.12085694785428,2.50000063558178,4.7375048015901E-06
47,6.12388825360411,2.50000064753168,4.70831239792437E-06
48,6.12691945966609,2.50000065945117,4.70152042185121E-06
49,6.12995071975561,2.50000067110196,4.70954542425883E-06
50,6.132981916692,2.50000068284343,4.72256475816998E-06
51,6.13601318220241,2.50000069440133,4.74155062799277E-06
52,6.13904438861772,2.5000007060984,4.76073577180283E-06
53,6.14207566318351,2.50000071764082,4.78321881579944E-06
54,6.14510687675359,2.50000072933988,4.80441033928761E-06
55,6.14813815643301,2.50000074089329,4.8280646237855E-06
56,6.1511693734409,2.50000075260894,4.84996913081538E-06
57,6.1542006553488,2.50000076418127,4.87408324262399E-06
58,6.15723187378577,2.50000077591722,4.89631465435392E-06
59,6.16026315663006,2.50000078751008,4.92068312239564E-06
60,6.1632943757195,2.50000079926653,4.94313465632662E-06
61,6.1661331660451,2.50000081014664,4.86112787389043E-06
62,6.16897188307481,2.50000082087091,4.83037251891343E-06
63,6.17181050042092,2.50000083156206,4.82203934584283E-06
64,6.17464917178428,2.50000084199603,4.82853816954926E-06
65,6.17748777999913,2.5000008525097,4.84003723195069E-06
66,6.18032645678317,2.50000086284622,4.85750900206972E-06
67,6.18316507447612,2.50000087330782,4.87518096398377E-06
68,6.18600376031733,2.50000088361934,4.89615389967298E-06
69,6.18884238516604,2.50000089407239,4.91583470232155E-06
70,6.19168107612313,2.50000090438378,4.93798023617399E-06
71,6.19451970441122,2.500000914842,4.95837488143146E-06
72,6.19735839759899,2.50000092516076,4.98098066258009E-06
73,6.20019702731787,2.50000093562767,5.00170241255387E-06
74,6.20303572144405,2.50000094595536,5.02456252391786E-06
75,6.20587435181709,2.50000095643119,5.0455042143417E-06
76,6.20871304644532,2.50000096676746,5.06856502002144E-06
77,6.2115516772461,2.50000097725149,5.0897015034691E-06
78,6.21419787924782,2.50000098689907,5.00624530323881E-06
79,6.21684400794147,2.50000099639486,4.97403761432902E-06
80,6.2194900369538,2.50000100585538,4.96425322409111E-06
81,6.2221361199884,2.5000010150707,4.96930223239677E-06
82,6.22478213988125,2.5000010243552,4.97935216729071E-06
83,6.22742822834856,2.50000103346935,4.99537675802852E-06
84,6.23007425773,2.50000104269492,5.01160219643096E-06
85,6.23272035526321,2.5000010517754,5.0311305431053E-06
86,6.23536639180751,2.50000106098271,5.0493674608971E-06
87,6.23801249446252,2.50000107005277,5.07007098520102E-06
88,6.24065853445122,2.50000107925467,5.08902433554187E-06
89,6.24330463934139,2.50000108832141,5.11019063727549E-06
90,6.24595068076494,2.50000109752127,5.1294735794235E-06
91,6.24859678659734,2.5000011065862,5.15089662934784E-06
92,6.25124282867867,2.5000011157843,5.1704018523187E-06
93,6.25388893501664,2.50000112484716,5.19202785942663E-06
94,6.25653497752912,2.50000113404285,5.21173004562589E-06
95,6.25918108426713,2.50000114310288,5.23354871788542E-06
96,6.26182712717056,2.50000115229532,5.25344542794035E-06
97,6.26428074127364,2.50000116069835,5.16858946093798E-06
98,6.26673428207115,2.50000116895418,5.13498101572648E-06
99,6.2691877231945,2.50000117717321,5.12379895971222E-06
100,6.27164121834626,2.50000118515957,5.12745200662886E-06
101,6.27409465036221,2.50000119320519,5.13610818759479E-06
102,6.27654815095709,2.50000120108782,5.15074129471841E-06
103,6.27900159247042,2.50000120906882,5.16557743010478E-06
104,6.28145510213875,2.50000121691026,5.18371876139195E-06
105,6.28390855082157,2.50000122486442,5.20057095055818E-06
106,6.28636206561771,2.50000123268631,5.21989199705304E-06
107,6.28881551775055,2.50000124062564,5.23746521681699E-06
108,6.29126903478721,2.50000124843464,5.25725359879388E-06
109,6.29372248836007,2.50000125636232,5.27516096771985E-06
110,6.29617600634402,2.50000126415992,5.29521060620241E-06
111,6.29862946057962,2.50000127207627,5.31334472689293E-06
112,6.301082979074,2.50000127986227,5.33360173725436E-06
113,6.30353643374552,2.50000128776674,5.35193718451097E-06
114,6.30598995264465,2.50000129554048,5.37239116504731E-06
115,6.30844340771175,2.50000130343232,5.3909253873907E-06
116,6.31070443397827,2.50000131059014,5.30453963299686E-06
117,6.31296538693894,2.50000131760642,5.26940043954246E-06
118,6.31522624022758,2.50000132458534,5.25668986620849E-06
119,6.31748714754629,2.50000133134521,5.25881671910112E-06
120,6.3197479917314,2.50000133815539,5.26594658767186E-06
121,6.32200890449703,2.50000134481097,5.27905547539266E-06
122,6.32426975818319,2.50000135155286,5.29236667699065E-06
123,6.32653068002576,2.50000135816175,5.30898485533221E-06
124,6.32879154088472,2.50000136487026,5.32431303700055E-06
125,6.33105246785829,2.50000137145248,5.34211167653561E-06
126,6.33331333217031,2.50000137813874,5.35816155953326E-06
127,6.33557426138733,2.50000138470052,5.37642808978932E-06
128,6.33783512714221,2.50000139136754,5.39281257514592E-06
129,6.34009605730926,2.50000139791033,5.41134071248752E-06
130,6.34235692372952,2.50000140455844,5.42795216993941E-06
131,6.34461785440955,2.50000141108212,5.44668779510983E-06
132,6.34687872126819,2.50000141771088,5.46350055104554E-06
133,6.34913965235532,2.50000142421487,5.48243301185938E-06
134,6.35140051961179,2.50000143082364,5.49944425956722E-06
135,6.35366145109764,2.50000143730731,5.51857479636701E-06
136,6.3559223187575,2.50000144389544,5.53578792982266E-06
137,6.35818325065219,2.50000145035811,5.55512104025279E-06
138,6.36044411872584,2.50000145692496,5.57254122326651E-06
139,6.36251255800504,2.50000146282407,5.48481055251358E-06
140,6.36458092398314,2.50000146858767,5.44832505698524E-06
141,6.36664919029689,2.50000147431379,5.43427268194373E-06
142,6.36871751064661,2.50000147983479,5.43505921380251E-06
143,6.37078576786832,2.5000014853976,5.44085224851742E-06
144,6.37285409367484,2.50000149081456,5.45262677194112E-06
145,6.37492236040626,2.50000149630617,5.46460720166972E-06
146,6.37699069529758,2.5000015016717,5.47989718958871E-06
147,6.37905896920911,2.50000150712412,5.49390100149991E-06
148,6.38112730923841,2.5000015124566,5.51037784718896E-06
149,6.38319558660977,2.50000151788011,5.52510990100482E-06
150,6.38526392888915,2.50000152318533,5.54206116016815E-06
151,6.38733220770989,2.50000152858272,5.55713439546348E-06
152,6.38940055094574,2.50000153386207,5.57435381185888E-06
153,6.39146883043823,2.50000153923369,5.58966057663646E-06
154,6.39353717419336,2.50000154448711,5.60709400154908E-06
155,6.39560545413045,2.5000015498326,5.62260857551038E-06
156,6.39767379829883,2.5000015550596,5.64024530879324E-06
157,6.39974207863983,2.50000156037841,5.65596483574866E-06
158,6.40181042321295,2.50000156557843,5.6738060704889E-06
159,6.40387870396327,2.50000157086999,5.68973390046657E-06
160,6.40594704895108,2.50000157604248,5.70778409300275E-06
161,6.40801533012099,2.50000158130625,5.72392535198356E-06
162,6.40989118249622,2.50000158597878,5.63466706037554E-06
163,6.41176696157004,2.50000159052288,5.59665186638803E-06
164,6.41364264098213,2.5000015950304,5.58107287442369E-06
165,6.41551837443233,2.50000159934781,5.58033499174978E-06
166,6.41739404475721,2.50000160369952,5.5846039097107E-06
167,6.41926978366896,2.50000160791518,5.59485657413014E-06
168,6.42114546350813,2.50000161219485,5.60531484536752E-06
169,6.42302121150909,2.50000161635638,5.61908463851945E-06
170,6.4248968985326,2.50000162059312,5.63156788065724E-06
171,6.42677265167564,2.50000162471727,5.64652593659024E-06
172,6.42864834216295,2.50000162892046,5.65973880089918E-06
173,6.43052409755992,2.5000016330126,5.67517253881202E-06
174,6.43239978950038,2.50000163718485,5.68872777978817E-06
175,6.43427554585749,2.50000164124629,5.70443077310618E-06
176,6.43615123847326,2.50000164538796,5.71822052706608E-06
177,6.43802699535312,2.50000164941868,5.73413841322112E-06
178,6.43990268841687,2.50000165352948,5.74813672746185E-06
179,6.44177844571327,2.5000016575291,5.76425857201405E-06
180,6.44365413918413,2.50000166160857,5.77846235090248E-06
181,6.44552989688836,2.5000016655766,5.79478910724299E-06
182,6.44740559077153,2.50000166962427,5.8092014600361E-06
183,6.44928134889335,2.50000167356026,5.82573734332787E-06
184,6.45115704319891,2.50000167757567,5.84036315347374E-06
185,6.45303280174708,2.50000168147915,5.85711339906288E-06
186,6.45490849648215,2.50000168546186,5.87195819024785E-06
187,6.45659176242346,2.50000168894253,5.78110614238164E-06
188,6.45827495506369,2.50000169230266,5.74149416022089E-06
189,6.45995804804505,2.50000169562791,5.72432134283866E-06
190,6.46164119506665,2.50000169877883,5.72199199437571E-06
191,6.46332427896553,2.50000170195734,5.72466884135373E-06
192,6.46500743145317,2.50000170501039,5.73333171210279E-06
193,6.46669052487055,2.50000170811758,5.74219876712713E-06
194,6.46837368645138,2.50000171111535,5.75437921190798E-06
195,6.47005678705689,2.50000171417743,5.76527154718154E-06
196,6.47173995378342,2.50000171713507,5.77864032411664E-06
197,6.47342305785621,2.50000172016052,5.79026229938552E-06
198,6.47510622684006,2.50000172308292,5.80410663720768E-06
199,6.47678933236927,2.50000172607414,5.81607076758049E-06
200,6.47847250231642,2.50000172896256,5.83018402358844E-06
201,6.48015560852401,2.50000173191993,5.8423821827588E-06
202,6.48183877899687,2.50000173477439,5.85670973085322E-06
203,6.4835218856553,2.50000173769769,5.86911568091116E-06
204,6.48520505654747,2.50000174051786,5.8836462993166E-06
205,6.48688816361566,2.50000174340671,5.89625665074956E-06
206,6.4885713349182,2.50000174619222,5.91099099838644E-06
207,6.49025444240116,2.50000174904622,5.92380856399434E-06
208,6.49193761412364,2.50000175179669,5.93875055869877E-06
209,6.49362072203122,2.50000175461548,5.95177992230818E-06
210,6.49530389418217,2.50000175733053,5.96693449770388E-06
211,6.49698700252128,2.50000176011374,5.98018087745159E-06
212,6.4986701751062,2.50000176279302,5.99555340657158E-06
213,6.50035328388125,2.50000176554028,6.00902235757939E-06
214,6.50203645690381,2.50000176818342,6.0246184952123E-06
215,6.50371956611803,2.50000177089437,6.03831582381674E-06
216,6.50521024653877,2.50000177321069,5.94592610175002E-06
217,6.50670085365833,2.500001775415,5.90477225977787E-06
218,6.50819136112234,2.5000017775868,5.88606190371613E-06
219,6.50968192262929,2.5000017796007,5.88219697574634E-06
220,6.51117242101675,2.50000178163615,5.88333890363637E-06
221,6.51266298799551,2.50000178355734,5.89046929733496E-06
222,6.51415349590702,2.50000178552349,5.89780388683202E-06
223,6.51564407198435,2.50000178738958,5.90845401756009E-06
224,6.51713458708917,2.5000017893097,5.91781606550684E-06
225,6.51862516831725,2.50000179113416,5.92965650471174E-06
226,6.52011568689427,2.50000179301587,5.93975021896983E-06
227,6.52160627038447,2.50000179480314,5.95206813254315E-06
228,6.52309679042263,2.50000179664861,5.96250588098998E-06
229,6.52458737488075,2.50000179839987,5.97509449821648E-06
230,6.5260778956018,2.50000180020947,5.98576796256679E-06
231,6.52756848059006,2.50000180192478,5.99857246275431E-06
232,6.52905900176629,2.50000180369833,6.0094551836212E-06
233,6.53054958717809,2.50000180537743,6.02246412188746E-06
234,6.53204010876821,2.50000180711463,6.03355248060944E-06
235,6.53353069459443,2.50000180875722,6.04676628773587E-06
236,6.53502121660327,2.50000181045776,6.05806286938957E-06
237,6.53651180285328,2.50000181206352,6.07148523647021E-06
238,6.53800232529049,2.5000018137271,6.08299439839346E-06
239,6.53949291197262,2.50000181529574,6.09663003215846E-06
240,6.54098343484493,2.50000181692207,6.10835676416293E-06
241,6.54247402196448,2.5000018184533,6.12221080753864E-06
242,6.54396454527609,2.5000018200421,6.13416043178508E-06
243,6.54545513283655,2.50000182153563,6.14823830392026E-06
244,6.5469456565905,2.50000182308661,6.16041638736699E-06
245,6.54843624459461,2.50000182454215,6.17472373389026E-06
246,6.5499267687935,2.500001826055,6.18713606053072E-06
247,6.55141735724383,2.50000182747225,6.20167873840088E-06
248,6.55290788189018,2.50000182894668,6.21433130257763E-06
249,6.55420597774287,2.50000183015555,6.12038745263768E-06
250,6.55550400029395,2.5000018312617,6.07767349353668E-06
251,6.55680192319302,2.50000183233848,6.05740824092454E-06
252,6.55809990013799,2.5000018332745,6.05199019371651E-06
253,6.55939781396698,2.50000183422678,6.05157972474388E-06
254,6.56069579639011,2.50000183507674,6.05716026734825E-06
255,6.56199371974927,2.5000018359632,6.062944989133E-06
256,6.56329171127691,2.50000183675968,6.07204748271299E-06
257,6.56458964183515,2.50000183760068,6.079861946027E-06
258,6.56588763851915,2.5000018383555,6.09015680235073E-06
259,6.56718557255507,2.50000183915773,6.09870508580419E-06
260,6.56848357150658,2.50000183987486,6.10947944976605E-06
261,6.5697815070089,2.50000184064029,6.11837378871541E-06
262,6.57107950693349,2.50000184132081,6.12942078139925E-06
263,6.57237744312379,2.50000184204978,6.13855266719801E-06
264,6.5736754435835,2.50000184269379,6.14981727476406E-06
265,6.57497338023386,2.50000184338617,6.15916002098329E-06
266,6.5762713811219,2.50000184399347,6.17063056995806E-06
267,6.57756931819085,2.50000184464902,6.18018032233388E-06
268,6.57886731949791,2.50000184521936,6.1918570097523E-06
269,6.58016525699007,2.50000184583784,6.20161612087011E-06
270,6.58146325872532,2.50000184637097,6.21350240720098E-06
271,6.58276119665016,2.50000184695215,6.22347500493976E-06
272,6.58405919882174,2.50000184744784,6.23557536761873E-06
273,6.58535713718578,2.5000018479915,6.24576621163111E-06
274,6.58665513979878,2.50000184844954,6.25808556194668E-06
275,6.58795307860604,2.50000184895544,6.26849974013892E-06
276,6.58925108166376,2.50000184937562,6.28104326041771E-06
277,6.59054902091706,2.50000184984355,6.2916860992858E-06
278,6.59184702442206,2.50000185022562,6.30445919147205E-06
279,6.59314496412382,2.50000185065536,6.3153362271499E-06
280,6.59444296807843,2.50000185099911,6.32834449681493E-06
281,6.59574090823098,2.50000185139042,6.33946146770835E-06
282,6.59703891263754,2.5000018516956,6.35271072209721E-06
283,6.59833685324321,2.50000185204825,6.364073570807E-06
284,6.5996348581041,2.50000185231463,6.37756982325308E-06
285,6.60093279916529,2.50000185262838,6.38918470279629E-06
286,6.6020383114326,2.5000018528307,6.29354132882416E-06
287,6.60314375039781,2.5000018529404,6.24911924234224E-06
288,6.60424908971436,2.50000185302468,6.22715129906706E-06
289,6.60535448307954,2.50000185298616,6.22003265412892E-06
290,6.60645981333196,2.50000185295942,6.21792054860695E-06
291,6.60756521218108,2.50000185284309,6.22180213621463E-06
292,6.60867055196923,2.50000185275562,6.22588562858162E-06
293,6.60977595992818,2.50000185258904,6.23328900840697E-06
294,6.61088130692054,2.50000185245827,6.23940204986676E-06
295,6.61198672004083,2.50000185225159,6.24799724492158E-06
296,6.61309207051569,2.50000185208329,6.25484362494791E-06
297,6.61419748590819,2.50000185184001,6.26391766787507E-06
298,6.61530283785403,2.50000185163592,6.27110938656751E-06
299,6.61640825422409,2.50000185135702,6.2804552071795E-06
300,6.61751360686227,2.50000185111747,6.28788346476571E-06
301,6.61861902377169,2.50000185080308,6.29744575797215E-06
302,6.61972437687407,2.50000185052798,6.30508353372923E-06
303,6.62082979421585,2.50000185017793,6.31485029011278E-06
304,6.62193514774074,2.50000184986709,6.32269338368967E-06
305,6.62304056550534,2.5000018494812,6.33266445585227E-06
306,6.62414591945713,2.50000184913444,6.34071487543289E-06
307,6.62525133765349,2.50000184871252,6.35089338082408E-06
308,6.62635669204142,2.50000184832966,6.35915491106752E-06
309,6.62746211067747,2.50000184787156,6.3695449830989E-06
310,6.62856746550783,2.50000184745244,6.37802203668149E-06
311,6.62967288458843,2.50000184695799,6.38862823675334E-06
312,6.63077823986501,2.50000184650245,6.39732554650753E-06
313,6.63188365939321,2.50000184597148,6.40815269750029E-06
314,6.63298901511861,2.50000184547937,6.41707522392185E-06
315,6.63409443509674,2.50000184491173,6.42812835660372E-06
316,6.63519979127313,2.50000184438288,6.43728125729441E-06
317,6.6363052117033,2.5000018437784,6.44856559301179E-06
318,6.63741056833277,2.50000184321264,6.45795421427123E-06
319,6.63851598921708,2.50000184257115,6.46947516210622E-06
320,6.63962134630174,2.50000184196831,6.47910504007511E-06
321,6.64072676764231,2.50000184128965,6.49086820049412E-06
322,6.64183212518433,2.50000184064955,6.50074506664625E-06
323,6.64293754698334,2.50000183993352,6.51275623818546E-06
324,6.64404290498491,2.50000183925599,6.52288602682961E-06
325,6.64514832724461,2.50000183850243,6.53515121416981E-06
326,6.64625368570799,2.50000183778728,6.54554007105247E-06
327,6.64735910843064,2.50000183699598,6.55806549390229E-06
328,6.64846446735815,2.50000183624303,6.56871978541129E-06
329,6.64937739749156,2.50000183556732,6.47120607504781E-06
330,6.65029025432228,2.5000018348099,6.42490102481248E-06
331,6.6512030115077,2.50000183403183,6.40105648880331E-06
332,6.6521158227444,2.50000183314966,6.39206359191709E-06
333,6.65302857087148,2.50000183227561,6.38807446103161E-06
334,6.65394138759766,2.50000183132545,6.39008198256372E-06
335,6.65485414526572,2.50000183039731,6.39228682241623E-06
336,6.65576697110676,2.50000182940168,6.39781366911709E-06
337,6.65667973598382,2.50000182843395,6.4020454952104E-06
338,6.65759256699082,2.50000182740134,6.40876109228059E-06
339,6.65850533535484,2.50000182639886,6.41372326377305E-06
340,6.65941816863834,2.50000182533228,6.42091447541859E-06
341,6.66033093847751,2.50000182429656,6.42621866876363E-06
342,6.66124377274262,2.50000182319689,6.43367816920835E-06
