i,x,y,theta
0,6,2.5,0
1,5.99999999025273,2.50000008661123,3.88790645549621E-10
2,6.00010166086708,2.5000000819002,5.66096431924658E-08
3,6.00040499364655,2.50000015815778,2.23378398364986E-07
4,6.00090974113498,2.50000020623449,4.99606502616623E-07
5,6.0016139176179,2.5000002339692,8.82305917890345E-07
6,6.00251574692965,2.50000024933827,1.3686800930537E-06
7,6.00361380913654,2.50000025815199,1.9560673086845E-06
8,6.00490703142181,2.50000026414521,2.64197428961668E-06
9,6.00639463012428,2.5000002696025,3.42408265595848E-06
10,6.00807604545249,2.50000027593506,4.30023196772053E-06
11,6.0099508837989,2.50000028408439,5.26839566145931E-06
12,6.01201887162049,2.50000029477039,6.32665739691515E-06
13,6.0142798205046,2.50000030863128,7.47319076098688E-06
14,6.01673360157872,2.50000032629653,8.70624303353636E-06
15,6.01938012759394,2.50000034816581,1.00241261325456E-05
16,6.02221934340489,2.50000037328485,1.14252422831231E-05
17,6.02525120983539,2.50000040198765,1.29080270312625E-05
18,6.02847570210684,2.50000043447328,1.44709519425577E-05
19,6.03189279958331,2.50000047320181,1.61124649935026E-05
20,6.03550248858348,2.50000052063889,1.78310090161741E-05
21,6.03930476117924,2.50000057862669,1.96250775218719E-05
22,6.04329961331303,2.50000064845816,2.14932230931736E-05
23,6.04739079034719,2.5000007288641,2.33812756008674E-05
24,6.05148203800179,2.50000081798426,2.52361873648268E-05
25,6.05557327519364,2.50000091564424,2.70564086998308E-05
26,6.05966448653318,2.50000102147934,2.88422493572637E-05
27,6.06375567154934,2.50000113514093,3.05942968586397E-05
28,6.06784683524913,2.50000125632685,3.23132343348469E-05
29,6.0719379836267,2.5000013847848,3.39997595547685E-05
30,6.0760291218512,2.50000152030488,3.56545527581068E-05
31,6.08012025377764,2.50000166270926,3.72782670944228E-05
32,6.08421138203008,2.50000181184265,3.88715286287522E-05
33,6.08830250827384,2.50000196756494,4.04349396491554E-05
34,6.09239363350216,2.50000212974591,4.19690824863045E-05
35,6.09648475827141,2.50000229826186,4.3474522781891E-05
36,6.10057588287156,2.50000247299347,4.49518119463753E-05
37,6.10466700743985,2.50000265382464,4.64014888770681E-05
38,6.10875813203167,2.50000284064181,4.78240811088541E-05
39,6.11284925666209,2.50000303333364,4.92201055711155E-05
40,6.11694038132873,2.50000323179083,5.05900690902871E-05
41,6.12103150602344,2.50000343590606,5.19344687375629E-05
42,6.12512263073753,2.50000364557399,5.32537920873585E-05
43,6.12921375546388,2.50000386069119,5.4548517426957E-05
44,6.13330488019729,2.50000408115616,5.58191139408532E-05
45,6.13739600493428,2.5000043068693,5.70660418825673E-05
46,6.14148712967266,2.50000453773289,5.82897527403055E-05
47,6.14557825441115,2.50000477365103,5.94906893994299E-05
48,6.14966937914902,2.50000501452968,6.06692863027406E-05
49,6.1537605038859,2.50000526027657,6.18259696088358E-05
50,6.1578516286216,2.50000551080117,6.29611573483803E-05
51,6.16194275335606,2.5000057660147,6.40752595781066E-05
52,6.16603387808924,2.50000602583006,6.5168678532361E-05
53,6.17012500282116,2.5000062901618,6.62418087720407E-05
54,6.17421612755182,2.50000655892611,6.72950373308647E-05
55,6.17830725228124,2.50000683204078,6.83287438589693E-05
56,6.18239837700943,2.50000710942516,6.93433007637684E-05
57,6.1864895017364,2.50000739100013,7.03390733481813E-05
58,6.19058062646216,2.5000076766881,7.13164199462089E-05
59,6.19467175118673,2.50000796641293,7.22756920559189E-05
60,6.19876287591011,2.50000826009997,7.32172344699019E-05
61,6.20285400063232,2.50000855767595,7.41413854032133E-05
62,6.20694512535337,2.50000885906903,7.50484766188843E-05
63,6.21103625007328,2.50000916420872,7.59388335510268E-05
64,6.21512737479205,2.5000094730259,7.68127754255907E-05
65,6.21921849950971,2.50000978545272,7.76706153788053E-05
66,6.22330962422625,2.50001010142269,7.85126605733717E-05
67,6.22740074894171,2.50001042087052,7.93392123124205E-05
68,6.23149187365609,2.50001074373222,8.01505661513084E-05
69,6.23558299836941,2.50001106994499,8.09470120072761E-05
70,6.23967412308169,2.50001139944724,8.17288342670035E-05
71,6.24376524779294,2.50001173217854,8.24963118921253E-05
72,6.24785637250317,2.50001206807964,8.32497185227253E-05
73,6.2519474972124,2.50001240709238,8.39893225788584E-05
74,6.25603862192065,2.50001274915976,8.47153873601287E-05
75,6.26012974662792,2.50001309422582,8.54281711433829E-05
76,6.26422087133425,2.50001344223569,8.61279272785178E-05
77,6.26831199603963,2.50001379313555,8.68149042824769E-05
78,6.27240312074409,2.50001414687261,8.74893459314516E-05
79,6.27649424544765,2.50001450339505,8.81514913513098E-05
80,6.28058537015031,2.50001486265209,8.88015751063128E-05
81,6.28467649485208,2.50001522459389,8.94398272861397E-05
82,6.288767619553,2.50001558917156,9.00664735912349E-05
83,6.29285874425306,2.50001595633714,9.06817354165545E-05
84,6.29694986895229,2.50001632604361,9.12858299336878E-05
85,6.30104099365069,2.50001669824483,9.18789701714284E-05
86,6.30513211834829,2.50001707289552,9.2461365094806E-05
87,6.30922324304509,2.5000174499513,9.30332196826043E-05
88,6.3133143677411,2.50001782936862,9.35947350034015E-05
89,6.31740549243635,2.50001821110476,9.41461082901691E-05
90,6.32149661713085,2.50001859511781,9.46875330134379E-05
91,6.3255877418246,2.50001898136666,9.52191989530726E-05
92,6.32967886651761,2.50001936981101,9.57412922686718E-05
93,6.33376999120992,2.50001976041129,9.62539955686335E-05
94,6.33786111590151,2.50002015312871,9.67574879778992E-05
95,6.34195224059242,2.50002054792522,9.72519452043952E-05
96,6.34604336528264,2.50002094476348,9.77375396042289E-05
97,6.35013448997219,2.50002134360687,9.82144402456221E-05
98,6.35422561466109,2.50002174441947,9.86828129716331E-05
99,6.35831673934934,2.50002214716605,9.91428204616769E-05
100,6.36240786403695,2.50002255181205,9.95946222918824E-05
101,6.36649898872394,2.50002295832355,0.000100038374994
102,6.37059011341031,2.50002336666731,0.000100474232115
103,6.37468123809609,2.50002377681071,0.000100902344271
104,6.37877236278126,2.50002418872173,0.000101322859205
105,6.38286348746586,2.500024602369,0.000101735921844
106,6.38694915133047,2.50002501715984,0.000101850730747
107,6.39101084326726,2.50002542997998,0.000101452896522
108,6.39503188397346,2.50002583806871,0.000100753561589
109,6.39901324323844,2.50002624023048,9.99624764125858E-05
110,6.40296338669705,2.50002663656094,9.91790447691089E-05
111,6.40688578638555,2.50002702715856,9.8422028916837E-05
112,6.41077813128784,2.50002741180286,9.7680446391138E-05
113,6.41463797567003,2.50002779033557,9.69439164997543E-05
114,6.41846562548895,2.50002816286758,9.62101486320764E-05
115,6.42226268053913,2.50002852962249,9.54810050147023E-05
116,6.42602997857304,2.50002889074491,9.47579599910173E-05
117,6.42976738201152,2.50002924628664,9.40410273004606E-05
118,6.43347468063068,2.50002959629358,9.33297774254518E-05
119,6.43715210018028,2.50002994085211,9.26241183467452E-05
120,6.44080009309924,2.50003028006819,9.19242008402403E-05
121,6.44441899878585,2.50003061403581,9.12300775284672E-05
122,6.44800899350577,2.50003094283278,9.05416379630845E-05
123,6.45157023306778,2.50003126653395,8.98587544246235E-05
124,6.45510294117459,2.50003158521911,8.9181375850043E-05
125,6.4586073798692,2.50003189897032,8.85094955002429E-05
126,6.46208379350759,2.50003220786693,8.78430893443251E-05
127,6.46553239804894,2.50003251198472,8.71821040038713E-05
128,6.46895340346126,2.50003281139788,8.65264814968571E-05
129,6.47234702896177,2.5000331061804,8.58761763505918E-05
130,6.47571349898325,2.50003339640565,8.52311513178919E-05
131,6.47905303398756,2.50003368214569,8.45913671509591E-05
132,6.48236584832226,2.50003396347101,8.39567800828935E-05
133,6.48565215373023,2.50003424045097,8.33273456496232E-05
134,6.48891216197371,2.50003451315391,8.27030216183951E-05
135,6.49214608431996,2.50003478164724,8.20837674434975E-05
136,6.49535413005183,2.50003504599722,8.14695426008354E-05
137,6.49853650606431,2.50003530626904,8.08603061044993E-05
138,6.50169341742021,2.50003556252682,8.02560170957779E-05
139,6.50482506780837,2.50003581483369,7.96566353387296E-05
140,6.50793165949293,2.50003606325179,7.90621211535757E-05
141,6.51101339308191,2.50003630784227,7.84724351438486E-05
142,6.5140704674617,2.5000365486653,7.7887538103867E-05
143,6.51710307989341,2.50003678578009,7.73073911068307E-05
144,6.52011142610101,2.50003701924491,7.67319555865558E-05
145,6.52309570027724,2.50003724911712,7.61611933287216E-05
146,6.52605609505655,2.50003747545316,7.55950664246443E-05
147,6.52899280151306,2.50003769830856,7.50335372522547E-05
148,6.53190600918564,2.500037917738,7.44765684872744E-05
149,6.53479590610289,2.50003813379526,7.39241231149254E-05
150,6.53766267879471,2.50003834653328,7.33761644272152E-05
151,6.54050651229803,2.50003855600416,7.28326560135853E-05
152,6.54332759016612,2.50003876225917,7.22935617553851E-05
153,6.5461260944823,2.50003896534878,7.1758845825447E-05
154,6.54890220587392,2.50003916532263,7.12284726882323E-05
155,6.55165610352395,2.5000393622296,7.07024070975893E-05
156,6.55438796518159,2.50003955611778,7.01806140931904E-05
157,6.55709796717322,2.50003974703451,6.96630589976225E-05
158,6.55978628441411,2.50003993502635,6.91497074145051E-05
159,6.56245309042004,2.50004012013916,6.86405252266337E-05
160,6.56509855731853,2.50004030241805,6.81354785937221E-05
161,6.56772285585979,2.50004048190742,6.76345339499163E-05
162,6.57032615542763,2.50004065865096,6.71376580014561E-05
163,6.57290862405049,2.50004083269167,6.66448177246203E-05
164,6.57547042841227,2.50004100407187,6.6155980363599E-05
165,6.57801173386318,2.50004117283322,6.56711134282121E-05
166,6.58053270443031,2.50004133901671,6.51901846918598E-05
167,6.58303350282824,2.50004150266266,6.47131621893019E-05
168,6.58551429046956,2.50004166381079,6.42400142145909E-05
169,6.58797522747526,2.50004182250016,6.37707093189133E-05
170,6.5904164726851,2.50004197876923,6.33052163084689E-05
171,6.59283818366783,2.50004213265583,6.28435042426264E-05
172,6.5952405167314,2.50004228419722,6.23855424316599E-05
173,6.597623626933,2.50004243343004,6.19313004346525E-05
174,6.5999876680891,2.50004258039037,6.14807480576786E-05
175,6.60233279278537,2.50004272511372,6.10338553518026E-05
176,6.60465915238653,2.50004286763501,6.05905926109879E-05
177,6.60696689704611,2.50004300798864,6.01509303700996E-05
178,6.60925617571616,2.50004314620844,5.97148394030807E-05
179,6.61152713615685,2.50004328232774,5.92822907209216E-05
180,6.61377992494601,2.50004341637929,5.88532555697005E-05
181,6.61601468748859,2.50004354839537,5.84277054288074E-05
182,6.61823156802606,2.50004367840773,5.80056120090014E-05
183,6.62043070964568,2.5000438064476,5.75869472504834E-05
184,6.62261225428978,2.50004393254576,5.71716833210688E-05
185,6.62477634276491,2.50004405673245,5.67597926143288E-05
186,6.6269231147509,2.50004417903748,5.63512477477789E-05
187,6.62905270880993,2.50004429949015,5.59460215610581E-05
188,6.6311652623954,2.50004441811933,5.55440871141692E-05
189,6.63326091186088,2.5000445349534,5.51454176857252E-05
190,6.63533979246885,2.50004465002032,5.47499867710203E-05
191,6.63740203839947,2.5000447633476,5.43577680802534E-05
192,6.6394477827592,2.5000448749623,5.39687355369566E-05
193,6.64147715758945,2.50004498489107,5.35828632763374E-05
194,6.64349029387504,2.50004509316014,5.32001256434193E-05
195,6.6454873215527,2.5000451997953,5.28204971912944E-05
196,6.64746836951942,2.50004530482197,5.24439526794268E-05
197,6.64943356564082,2.50004540826515,5.20704670720279E-05
198,6.65138303675934,2.50004551014943,5.17000155365005E-05
199,6.65331690870248,2.50004561049904,5.13325734417101E-05
200,6.65523530629089,2.5000457093378,5.09681163563425E-05
201,6.65713835334644,2.50004580668919,5.06066200472929E-05
202,6.65902617270021,2.50004590257628,5.02480604780314E-05
203,6.66089888620041,2.5000459970218,4.98924138070071E-05
204,6.66275661472027,2.50004609004811,4.95396563861038E-05
205,6.6645994781658,2.50004618167723,4.91897647590967E-05
206,6.66642759548357,2.50004627193081,4.88427156600374E-05
207,6.66824108466836,2.5000463608302,4.84984860117737E-05
208,6.67004006277079,2.50004644839636,4.8157052924433E-05
209,6.67182464590486,2.50004653464995,4.78183936937262E-05
210,6.67359494925548,2.50004661961132,4.74824857995974E-05
211,6.67535108708586,2.50004670330046,4.71493069047164E-05
212,6.6770931727449,2.50004678573707,4.68188348530109E-05
213,6.67882131867452,2.50004686694053,4.64910476681871E-05
214,6.68053563641693,2.50004694692993,4.61659235521755E-05
215,6.68223623662176,2.50004702572403,4.58434408838157E-05
216,6.68392322905329,2.50004710334133,4.55235782173703E-05
217,6.68559672259747,2.50004717980002,4.52063142810302E-05
218,6.687256825269,2.50004725511799,4.48916279756402E-05
219,6.68890364421823,2.50004732931287,4.45794983732975E-05
220,6.69053728573817,2.50004740240201,4.42699047158719E-05
221,6.69215785527127,2.50004747440247,4.39628264136122E-05
222,6.69376545741625,2.50004754533107,4.36582430437821E-05
223,6.69536019593488,2.50004761520434,4.33561343494207E-05
224,6.69694217375865,2.50004768403856,4.30564802379462E-05
225,6.69851149299541,2.50004775184975,4.27592607798242E-05
226,6.70006825493596,2.50004781865368,4.24644562072352E-05
227,6.70161256006063,2.50004788446588,4.21720469126793E-05
228,6.70314450804569,2.50004794930163,4.1882013447716E-05
229,6.70466419776986,2.50004801317596,4.15943365217804E-05
230,6.70617172732063,2.50004807610367,4.13089970008986E-05
231,6.70766719400065,2.50004813809934,4.10259759062948E-05
232,6.70915069433396,2.50004819917731,4.07452544131682E-05
233,6.71062232407223,2.50004825935169,4.04668138494918E-05
234,6.71208217820097,2.50004831863637,4.01906356947963E-05
235,6.71353035094562,2.50004837704503,3.9916701578823E-05
236,6.71496693577767,2.50004843459114,3.9644993280331E-05
237,6.71639202542066,2.50004849128793,3.93754927260481E-05
238,6.7178057118562,2.50004854714846,3.9108181989354E-05
239,6.71920808632986,2.50004860218556,3.88430432891E-05
240,6.7205992393571,2.50004865641186,3.85800589883792E-05
241,6.72197926072911,2.50004870983981,3.83192115933707E-05
242,6.72334823951857,2.50004876248164,3.80604837522626E-05
243,6.72470626408544,2.50004881434941,3.78038582540167E-05
244,6.72605342208264,2.50004886545497,3.75493180272261E-05
245,6.7273898004617,2.50004891581,3.72968461391276E-05
246,6.72871548547843,2.50004896542599,3.7046425794342E-05
247,6.73003056269838,2.50004901431427,3.67980403336639E-05
248,6.73133511700248,2.50004906248595,3.65516732331423E-05
249,6.73262923259243,2.50004910995201,3.63073081030315E-05
250,6.73391299299619,2.50004915672322,3.60649286865439E-05
251,6.73518648107334,2.50004920281022,3.58245188586778E-05
252,6.73644977902044,2.50004924822345,3.55860626253523E-05
253,6.73770296837635,2.50004929297321,3.53495441223598E-05
254,6.73894613002744,2.50004933706962,3.51149476142193E-05
255,6.74017934421288,2.50004938052266,3.48822574931006E-05
256,6.74140269052977,2.50004942334214,3.46514582778401E-05
257,6.74261624793832,2.50004946553772,3.44225346129173E-05
258,6.74382009476688,2.50004950711891,3.41954712673971E-05
259,6.74501430871706,2.50004954809507,3.39702531339775E-05
260,6.74619896686873,2.50004958847542,3.3746865228003E-05
261,6.74737414568497,2.50004962826904,3.35252926864137E-05
262,6.74853992101702,2.50004966748484,3.33055207667258E-05
263,6.74969636810919,2.50004970613162,3.30875348461351E-05
264,6.7508435616037,2.50004974421804,3.28713204205505E-05
265,6.7519815755455,2.5000497817526,3.26568631035071E-05
266,6.75311048338705,2.50004981874371,3.24441486253174E-05
267,6.75423035799306,2.5000498551996,3.22331628321167E-05
268,6.7553412716452,2.5000498911284,3.20238916849095E-05
269,6.75644329604676,2.50004992653812,3.18163212587005E-05
270,6.75753650232729,2.50004996143663,3.16104377414468E-05
271,6.75862096104714,2.50004999583167,3.14062274331706E-05
272,6.7596967422021,2.50005002973089,3.12036767450827E-05
273,6.76076391522785,2.50005006314178,3.1002772198744E-05
274,6.76182254900446,2.50005009607175,3.08035004250731E-05
275,6.76287271186085,2.50005012852807,3.0605848163514E-05
276,6.76391447157918,2.50005016051791,3.04098022611797E-05
277,6.76494789539923,2.50005019204832,3.02153496718604E-05
278,6.76597305002277,2.50005022312625,3.00224774552625E-05
279,6.7669900016178,2.50005025375854,2.98311727761134E-05
280,6.76799881582291,2.50005028395191,2.96414229033201E-05
281,6.76899955775141,2.50005031371299,2.94532152091891E-05
282,6.76999229199563,2.5000503430483,2.92665371683995E-05
283,6.77097708263105,2.50005037196426,2.90813763573499E-05
284,6.7719539932204,2.5000504004672,2.88977204533233E-05
285,6.77292308681782,2.50005042856334,2.87155572334915E-05
286,6.77388442597292,2.5000504562588,2.85348745742219E-05
287,6.77483807273478,2.50005048355961,2.83556604504186E-05
288,6.77578408865599,2.50005051047172,2.81779029345726E-05
289,6.77672253479661,2.50005053700096,2.80015901959487E-05
290,6.7776534717281,2.5000505631531,2.78267104998797E-05
291,6.77857695953727,2.50005058893379,2.76532522069502E-05
292,6.77949305783011,2.50005061434862,2.74812037722317E-05
293,6.78040182573567,2.50005063940307,2.73105537443572E-05
294,6.78130332190984,2.50005066410256,2.71412907649513E-05
295,6.7821976045392,2.5000506884524,2.69734035679169E-05
296,6.78308473134469,2.50005071245784,2.68068809785816E-05
297,6.78396475958543,2.50005073612402,2.66417119130211E-05
298,6.78483774606232,2.50005075945604,2.6477885377313E-05
299,6.78570374712179,2.50005078245889,2.63153904666532E-05
300,6.78656281865939,2.5000508051375,2.61542163647963E-05
301,6.78741501612338,2.5000508274967,2.59943523433508E-05
302,6.78826039451839,2.50005084954128,2.58357877609107E-05
303,6.78909900840887,2.50005087127593,2.56785120624317E-05
304,6.78993091192268,2.50005089270527,2.55225147786796E-05
305,6.79075615875457,2.50005091383386,2.53677855254454E-05
306,6.79157480216961,2.50005093466619,2.52143140025908E-05
307,6.79238689500668,2.50005095520666,2.506208999367E-05
308,6.79319248968186,2.50005097545962,2.49111033653179E-05
309,6.7939916381918,2.50005099542936,2.47613440663E-05
310,6.79478439211707,2.50005101512008,2.4612802126889E-05
311,6.79557080262554,2.50005103453593,2.44654676584095E-05
312,6.79635092047561,2.50005105368101,2.43193308525458E-05
313,6.79712479601957,2.50005107255931,2.41743819804593E-05
314,6.79789247920675,2.50005109117482,2.40306113922393E-05
315,6.79865401958685,2.50005110953142,2.3888009516401E-05
316,6.79940946631304,2.50005112763295,2.3746566859232E-05
317,6.80015886814521,2.5000511454832,2.36062740040739E-05
318,6.80090227345307,2.50005116308588,2.34671216106393E-05
319,6.8016397302193,2.50005118044465,2.33291004144552E-05
320,6.80237128604263,2.50005119756313,2.31922012262891E-05
321,6.8030969881409,2.50005121444486,2.30564149315044E-05
322,6.80381688335416,2.50005123109335,2.29217324894247E-05
323,6.80453101814763,2.50005124751204,2.27881449327492E-05
324,6.80523943861473,2.50005126370431,2.26556433670367E-05
325,6.80594219048005,2.5000512796735,2.25242189701303E-05
326,6.80663931910233,2.50005129542291,2.23938629914012E-05
327,6.80733086947733,2.50005131095577,2.22645667511965E-05
328,6.80801688624077,2.50005132627527,2.21363216403499E-05
329,6.80869741367122,2.50005134138454,2.20091191197145E-05
330,6.80937249569294,2.50005135628667,2.18829507194566E-05
331,6.81004217587871,2.50005137098472,2.17578080383789E-05
332,6.81070649745266,2.50005138548167,2.16336827435621E-05
333,6.81136550329305,2.50005139978047,2.15105665697363E-05
334,6.81201923593503,2.50005141388403,2.13884513186645E-05
335,6.81266773757342,2.50005142779522,2.12673288586852E-05
336,6.81331105006536,2.50005144151685,2.11471911242177E-05
337,6.81394921493312,2.50005145505168,2.10280301151903E-05
338,6.81458227336668,2.50005146840246,2.09098378964213E-05
339,6.81521026622642,2.50005148157188,2.07926065971753E-05
340,6.81583323404581,2.50005149456257,2.06763284106971E-05
341,6.81645121703393,2.50005150737716,2.05609955935339E-05
342,6.81706425507816,2.50005152001821,2.04466004650261E-05
